n,m,diameter_nm,type,transition,E_ii_eV
1,0,0.0783,S,E11S,10.8828
1,0,0.0783,S,E22S,21.7656
1,0,0.0783,S,E33S,43.5312
1,0,0.0783,S,E44S,54.414
1,1,0.1356,M,E11M,18.8496
1,1,0.1356,M,E22M,37.6991
2,0,0.1566,S,E11S,5.4414
2,0,0.1566,S,E22S,10.8828
2,0,0.1566,S,E33S,21.7656
2,0,0.1566,S,E44S,27.207
2,1,0.2071,S,E11S,4.1133
2,1,0.2071,S,E22S,8.2266
2,1,0.2071,S,E33S,16.4532
2,1,0.2071,S,E44S,20.5666
2,2,0.2712,M,E11M,9.4248
2,2,0.2712,M,E22M,18.8496
3,0,0.2349,M,E11M,10.8828
3,0,0.2349,M,E22M,21.7656
3,1,0.2823,S,E11S,3.0183
3,1,0.2823,S,E22S,6.0367
3,1,0.2823,S,E33S,12.0734
3,1,0.2823,S,E44S,15.0917
3,2,0.3413,S,E11S,2.4967
3,2,0.3413,S,E22S,4.9934
3,2,0.3413,S,E33S,9.9867
3,2,0.3413,S,E44S,12.4834
3,3,0.4068,M,E11M,6.2832
3,3,0.4068,M,E22M,12.5664
4,0,0.3132,S,E11S,2.7207
4,0,0.3132,S,E22S,5.4414
4,0,0.3132,S,E33S,10.8828
4,0,0.3132,S,E44S,13.6035
4,1,0.3588,M,E11M,7.1245
4,1,0.3588,M,E22M,14.2489
4,2,0.4143,S,E11S,2.0567
4,2,0.4143,S,E22S,4.1133
4,2,0.4143,S,E33S,8.2266
4,2,0.4143,S,E44S,10.2833
4,3,0.4762,S,E11S,1.7891
4,3,0.4762,S,E22S,3.5782
4,3,0.4762,S,E33S,7.1565
4,3,0.4762,S,E44S,8.9456
4,4,0.5424,M,E11M,4.7124
4,4,0.5424,M,E22M,9.4248
5,0,0.3914,S,E11S,2.1766
5,0,0.3914,S,E22S,4.3531
5,0,0.3914,S,E33S,8.7062
5,0,0.3914,S,E44S,10.8828
5,1,0.4359,S,E11S,1.9546
5,1,0.4359,S,E22S,3.9092
5,1,0.4359,S,E33S,7.8184
5,1,0.4359,S,E44S,9.773
5,2,0.4889,M,E11M,5.2279
5,2,0.4889,M,E22M,10.4559
5,3,0.548,S,E11S,1.5547
5,3,0.548,S,E22S,3.1094
5,3,0.548,S,E33S,6.2187
5,3,0.548,S,E44S,7.7734
5,4,0.6115,S,E11S,1.3934
5,4,0.6115,S,E22S,2.7868
5,4,0.6115,S,E33S,5.5736
5,4,0.6115,S,E44S,6.967
5,5,0.678,M,E11M,3.7699
5,5,0.678,M,E22M,7.5398
6,0,0.4697,M,E11M,5.4414
6,0,0.4697,M,E22M,10.8828
6,1,0.5134,S,E11S,1.6596
6,1,0.5134,S,E22S,3.3192
6,1,0.5134,S,E33S,6.6384
6,1,0.5134,S,E44S,8.2981
6,2,0.5645,S,E11S,1.5092
6,2,0.5645,S,E22S,3.0183
6,2,0.5645,S,E33S,6.0367
6,2,0.5645,S,E44S,7.5459
6,3,0.6214,M,E11M,4.1133
6,3,0.6214,M,E22M,8.2266
6,4,0.6825,S,E11S,1.2483
6,4,0.6825,S,E22S,2.4967
6,4,0.6825,S,E33S,4.9934
6,4,0.6825,S,E44S,6.2417
6,5,0.7468,S,E11S,1.1408
6,5,0.7468,S,E22S,2.2817
6,5,0.7468,S,E33S,4.5633
6,5,0.7468,S,E44S,5.7041
6,6,0.8136,M,E11M,3.1416
6,6,0.8136,M,E22M,6.2832
7,0,0.548,S,E11S,1.5547
7,0,0.548,S,E22S,3.1094
7,0,0.548,S,E33S,6.2187
7,0,0.548,S,E44S,7.7734
7,1,0.5911,M,E11M,4.3244
7,1,0.5911,M,E22M,8.6488
7,2,0.6408,S,E11S,1.3295
7,2,0.6408,S,E22S,2.6591
7,2,0.6408,S,E33S,5.3182
7,2,0.6408,S,E44S,6.6477
7,3,0.6958,S,E11S,1.2244
7,3,0.6958,S,E22S,2.4488
7,3,0.6958,S,E33S,4.8976
7,3,0.6958,S,E44S,6.1221
7,4,0.755,M,E11M,3.3855
7,4,0.755,M,E22M,6.771
7,5,0.8174,S,E11S,1.0424
7,5,0.8174,S,E22S,2.0848
7,5,0.8174,S,E33S,4.1695
7,5,0.8174,S,E44S,5.2119
7,6,0.8823,S,E11S,0.9657
7,6,0.8823,S,E22S,1.9314
7,6,0.8823,S,E33S,3.8628
7,6,0.8823,S,E44S,4.8285
7,7,0.9492,M,E11M,2.6928
7,7,0.9492,M,E22M,5.3856
8,0,0.6263,S,E11S,1.3603
8,0,0.6263,S,E22S,2.7207
8,0,0.6263,S,E33S,5.4414
8,0,0.6263,S,E44S,6.8017
8,1,0.6689,S,E11S,1.2737
8,1,0.6689,S,E22S,2.5475
8,1,0.6689,S,E33S,5.0949
8,1,0.6689,S,E44S,6.3687
8,2,0.7175,M,E11M,3.5622
8,2,0.7175,M,E22M,7.1245
8,3,0.7711,S,E11S,1.105
8,3,0.7711,S,E22S,2.21
8,3,0.7711,S,E33S,4.4199
8,3,0.7711,S,E44S,5.5249
8,4,0.8285,S,E11S,1.0283
8,4,0.8285,S,E22S,2.0567
8,4,0.8285,S,E33S,4.1133
8,4,0.8285,S,E44S,5.1416
8,5,0.8892,M,E11M,2.8745
8,5,0.8892,M,E22M,5.7491
8,6,0.9524,S,E11S,0.8946
8,6,0.9524,S,E22S,1.7891
8,6,0.9524,S,E33S,3.5782
8,6,0.9524,S,E44S,4.4728
8,7,1.0178,S,E11S,0.8371
8,7,1.0178,S,E22S,1.6743
8,7,1.0178,S,E33S,3.3486
8,7,1.0178,S,E44S,4.1857
8,8,1.0848,M,E11M,2.3562
8,8,1.0848,M,E22M,4.7124
9,0,0.7046,M,E11M,3.6276
9,0,0.7046,M,E22M,7.2552
9,1,0.7468,S,E11S,1.1408
9,1,0.7468,S,E22S,2.2817
9,1,0.7468,S,E33S,4.5633
9,1,0.7468,S,E44S,5.7041
9,2,0.7945,S,E11S,1.0723
9,2,0.7945,S,E22S,2.1446
9,2,0.7945,S,E33S,4.2893
9,2,0.7945,S,E44S,5.3616
9,3,0.8468,M,E11M,3.0183
9,3,0.8468,M,E22M,6.0367
9,4,0.9029,S,E11S,0.9437
9,4,0.9029,S,E22S,1.8873
9,4,0.9029,S,E33S,3.7746
9,4,0.9029,S,E44S,4.7183
9,5,0.962,S,E11S,0.8856
9,5,0.962,S,E22S,1.7713
9,5,0.962,S,E33S,3.5425
9,5,0.962,S,E44S,4.4281
9,6,1.0238,M,E11M,2.4967
9,6,1.0238,M,E22M,4.9934
9,7,1.0876,S,E11S,0.7834
9,7,1.0876,S,E22S,1.5667
9,7,1.0876,S,E33S,3.1334
9,7,1.0876,S,E44S,3.9168
9,8,1.1533,S,E11S,0.7388
9,8,1.1533,S,E22S,1.4775
9,8,1.1533,S,E33S,2.9551
9,8,1.1533,S,E44S,3.6939
9,9,1.2204,M,E11M,2.0944
9,9,1.2204,M,E22M,4.1888
10,0,0.7829,S,E11S,1.0883
10,0,0.7829,S,E22S,2.1766
10,0,0.7829,S,E33S,4.3531
10,0,0.7829,S,E44S,5.4414
10,1,0.8248,M,E11M,3.0988
10,1,0.8248,M,E22M,6.1977
10,2,0.8718,S,E11S,0.9773
10,2,0.8718,S,E22S,1.9546
10,2,0.8718,S,E33S,3.9092
10,2,0.8718,S,E44S,4.8865
10,3,0.923,S,E11S,0.9231
10,3,0.923,S,E22S,1.8461
10,3,0.923,S,E33S,3.6923
10,3,0.923,S,E44S,4.6153
10,4,0.9778,M,E11M,2.614
10,4,0.9778,M,E22M,5.2279
10,5,1.0357,S,E11S,0.8227
10,5,1.0357,S,E22S,1.6453
10,5,1.0357,S,E33S,3.2906
10,5,1.0357,S,E44S,4.1133
10,6,1.096,S,E11S,0.7773
10,6,1.096,S,E22S,1.5547
10,6,1.096,S,E33S,3.1094
10,6,1.096,S,E44S,3.8867
10,7,1.1586,M,E11M,2.2062
10,7,1.1586,M,E22M,4.4123
10,8,1.2229,S,E11S,0.6967
10,8,1.2229,S,E22S,1.3934
10,8,1.2229,S,E33S,2.7868
10,8,1.2229,S,E44S,3.4835
10,9,1.2888,S,E11S,0.6611
10,9,1.2888,S,E22S,1.3222
10,9,1.2888,S,E33S,2.6443
10,9,1.2888,S,E44S,3.3054
10,10,1.356,M,E11M,1.885
10,10,1.356,M,E22M,3.7699
11,0,0.8612,S,E11S,0.9893
11,0,0.8612,S,E22S,1.9787
11,0,0.8612,S,E33S,3.9574
11,0,0.8612,S,E44S,4.9467
11,1,0.9029,S,E11S,0.9437
11,1,0.9029,S,E22S,1.8873
11,1,0.9029,S,E33S,3.7746
11,1,0.9029,S,E44S,4.7183
11,2,0.9492,M,E11M,2.6928
11,2,0.9492,M,E22M,5.3856
11,3,0.9995,S,E11S,0.8524
11,3,0.9995,S,E22S,1.7048
11,3,0.9995,S,E33S,3.4096
11,3,0.9995,S,E44S,4.262
11,4,1.0533,S,E11S,0.8089
11,4,1.0533,S,E22S,1.6178
11,4,1.0533,S,E33S,3.2356
11,4,1.0533,S,E44S,4.0446
11,5,1.1099,M,E11M,2.3028
11,5,1.1099,M,E22M,4.6057
11,6,1.1691,S,E11S,0.7288
11,6,1.1691,S,E22S,1.4575
11,6,1.1691,S,E33S,2.9151
11,6,1.1691,S,E44S,3.6438
11,7,1.2304,S,E11S,0.6925
11,7,1.2304,S,E22S,1.3849
11,7,1.2304,S,E33S,2.7698
11,7,1.2304,S,E44S,3.4623
11,8,1.2935,M,E11M,1.976
11,8,1.2935,M,E22M,3.9519
11,9,1.3583,S,E11S,0.6273
11,9,1.3583,S,E22S,1.2545
11,9,1.3583,S,E33S,2.5091
11,9,1.3583,S,E44S,3.1364
11,10,1.4243,S,E11S,0.5982
11,10,1.4243,S,E22S,1.1963
11,10,1.4243,S,E33S,2.3927
11,10,1.4243,S,E44S,2.9909
11,11,1.4916,M,E11M,1.7136
11,11,1.4916,M,E22M,3.4272
12,0,0.9395,M,E11M,2.7207
12,0,0.9395,M,E22M,5.4414
12,1,0.981,S,E11S,0.8685
12,1,0.981,S,E22S,1.7371
12,1,0.981,S,E33S,3.4742
12,1,0.981,S,E44S,4.3427
12,2,1.0267,S,E11S,0.8298
12,2,1.0267,S,E22S,1.6596
12,2,1.0267,S,E33S,3.3192
12,2,1.0267,S,E44S,4.149
12,3,1.0763,M,E11M,2.3748
12,3,1.0763,M,E22M,4.7496
12,4,1.1291,S,E11S,0.7546
12,4,1.1291,S,E22S,1.5092
12,4,1.1291,S,E33S,3.0183
12,4,1.1291,S,E44S,3.7729
12,5,1.1847,S,E11S,0.7192
12,5,1.1847,S,E22S,1.4383
12,5,1.1847,S,E33S,2.8766
12,5,1.1847,S,E44S,3.5958
12,6,1.2428,M,E11M,2.0567
12,6,1.2428,M,E22M,4.1133
12,7,1.303,S,E11S,0.6539
12,7,1.303,S,E22S,1.3078
12,7,1.303,S,E33S,2.6155
12,7,1.303,S,E44S,3.2694
12,8,1.365,S,E11S,0.6242
12,8,1.365,S,E22S,1.2483
12,8,1.365,S,E33S,2.4967
12,8,1.365,S,E44S,3.1209
12,9,1.4286,M,E11M,1.7891
12,9,1.4286,M,E22M,3.5782
12,10,1.4937,S,E11S,0.5704
12,10,1.4937,S,E22S,1.1408
12,10,1.4937,S,E33S,2.2817
12,10,1.4937,S,E44S,2.8521
12,11,1.5599,S,E11S,0.5462
12,11,1.5599,S,E22S,1.0924
12,11,1.5599,S,E33S,2.1848
12,11,1.5599,S,E44S,2.731
12,12,1.6272,M,E11M,1.5708
12,12,1.6272,M,E22M,3.1416
13,0,1.0178,S,E11S,0.8371
13,0,1.0178,S,E22S,1.6743
13,0,1.0178,S,E33S,3.3486
13,0,1.0178,S,E44S,4.1857
13,1,1.0591,M,E11M,2.4134
13,1,1.0591,M,E22M,4.8269
13,2,1.1044,S,E11S,0.7715
13,2,1.1044,S,E22S,1.5429
13,2,1.1044,S,E33S,3.0858
13,2,1.1044,S,E44S,3.8573
13,3,1.1533,S,E11S,0.7388
13,3,1.1533,S,E22S,1.4775
13,3,1.1533,S,E33S,2.9551
13,3,1.1533,S,E44S,3.6939
13,4,1.2052,M,E11M,2.1207
13,4,1.2052,M,E22M,4.2415
13,5,1.2599,S,E11S,0.6762
13,5,1.2599,S,E22S,1.3524
13,5,1.2599,S,E33S,2.7049
13,5,1.2599,S,E44S,3.3811
13,6,1.317,S,E11S,0.6469
13,6,1.317,S,E22S,1.2938
13,6,1.317,S,E33S,2.5877
13,6,1.317,S,E44S,3.2346
13,7,1.3762,M,E11M,1.8573
13,7,1.3762,M,E22M,3.7146
13,8,1.4372,S,E11S,0.5928
13,8,1.4372,S,E22S,1.1856
13,8,1.4372,S,E33S,2.3713
13,8,1.4372,S,E44S,2.9641
13,9,1.4998,S,E11S,0.5681
13,9,1.4998,S,E22S,1.1362
13,9,1.4998,S,E33S,2.2723
13,9,1.4998,S,E44S,2.8404
13,10,1.5638,M,E11M,1.6345
13,10,1.5638,M,E22M,3.2689
13,11,1.6291,S,E11S,0.523
13,11,1.6291,S,E22S,1.046
13,11,1.6291,S,E33S,2.092
13,11,1.6291,S,E44S,2.615
13,12,1.6955,S,E11S,0.5025
13,12,1.6955,S,E22S,1.005
13,12,1.6955,S,E33S,2.0101
13,12,1.6955,S,E44S,2.5126
13,13,1.7628,M,E11M,1.45
13,13,1.7628,M,E22M,2.8999
14,0,1.096,S,E11S,0.7773
14,0,1.096,S,E22S,1.5547
14,0,1.096,S,E33S,3.1094
14,0,1.096,S,E44S,3.8867
14,1,1.1372,S,E11S,0.7492
14,1,1.1372,S,E22S,1.4984
14,1,1.1372,S,E33S,2.9968
14,1,1.1372,S,E44S,3.746
14,2,1.1821,M,E11M,2.1622
14,2,1.1821,M,E22M,4.3244
14,3,1.2304,S,E11S,0.6925
14,3,1.2304,S,E22S,1.3849
14,3,1.2304,S,E33S,2.7698
14,3,1.2304,S,E44S,3.4623
14,4,1.2816,S,E11S,0.6648
14,4,1.2816,S,E22S,1.3295
14,4,1.2816,S,E33S,2.6591
14,4,1.2816,S,E44S,3.3239
14,5,1.3355,M,E11M,1.9139
14,5,1.3355,M,E22M,3.8278
14,6,1.3917,S,E11S,0.6122
14,6,1.3917,S,E22S,1.2244
14,6,1.3917,S,E33S,2.4488
14,6,1.3917,S,E44S,3.061
14,7,1.4499,S,E11S,0.5876
14,7,1.4499,S,E22S,1.1752
14,7,1.4499,S,E33S,2.3505
14,7,1.4499,S,E44S,2.9381
14,8,1.51,M,E11M,1.6927
14,8,1.51,M,E22M,3.3855
14,9,1.5716,S,E11S,0.5421
14,9,1.5716,S,E22S,1.0842
14,9,1.5716,S,E33S,2.1684
14,9,1.5716,S,E44S,2.7106
14,10,1.6347,S,E11S,0.5212
14,10,1.6347,S,E22S,1.0424
14,10,1.6347,S,E33S,2.0848
14,10,1.6347,S,E44S,2.606
14,11,1.6991,M,E11M,1.5044
14,11,1.6991,M,E22M,3.0087
14,12,1.7645,S,E11S,0.4828
14,12,1.7645,S,E22S,0.9657
14,12,1.7645,S,E33S,1.9314
14,12,1.7645,S,E44S,2.4142
14,13,1.831,S,E11S,0.4653
14,13,1.831,S,E22S,0.9306
14,13,1.831,S,E33S,1.8613
14,13,1.831,S,E44S,2.3266
14,14,1.8984,M,E11M,1.3464
14,14,1.8984,M,E22M,2.6928
15,0,1.1743,M,E11M,2.1766
15,0,1.1743,M,E22M,4.3531
15,1,1.2154,S,E11S,0.701
15,1,1.2154,S,E22S,1.402
15,1,1.2154,S,E33S,2.8041
15,1,1.2154,S,E44S,3.5051
15,2,1.2599,S,E11S,0.6762
15,2,1.2599,S,E22S,1.3524
15,2,1.2599,S,E33S,2.7049
15,2,1.2599,S,E44S,3.3811
15,3,1.3077,M,E11M,1.9546
15,3,1.3077,M,E22M,3.9092
15,4,1.3583,S,E11S,0.6273
15,4,1.3583,S,E22S,1.2545
15,4,1.3583,S,E33S,2.5091
15,4,1.3583,S,E44S,3.1364
15,5,1.4114,S,E11S,0.6037
15,5,1.4114,S,E22S,1.2073
15,5,1.4114,S,E33S,2.4147
15,5,1.4114,S,E44S,3.0183
15,6,1.4667,M,E11M,1.7426
15,6,1.4667,M,E22M,3.4853
15,7,1.5241,S,E11S,0.559
15,7,1.5241,S,E22S,1.118
15,7,1.5241,S,E33S,2.236
15,7,1.5241,S,E44S,2.7951
15,8,1.5833,S,E11S,0.5381
15,8,1.5833,S,E22S,1.0762
15,8,1.5833,S,E33S,2.1525
15,8,1.5833,S,E44S,2.6906
15,9,1.6441,M,E11M,1.5547
15,9,1.6441,M,E22M,3.1094
15,10,1.7063,S,E11S,0.4993
15,10,1.7063,S,E22S,0.9987
15,10,1.7063,S,E33S,1.9973
15,10,1.7063,S,E44S,2.4967
15,11,1.7697,S,E11S,0.4814
15,11,1.7697,S,E22S,0.9629
15,11,1.7697,S,E33S,1.9257
15,11,1.7697,S,E44S,2.4071
15,12,1.8344,M,E11M,1.3934
15,12,1.8344,M,E22M,2.7868
15,13,1.9,S,E11S,0.4484
15,13,1.9,S,E22S,0.8968
15,13,1.9,S,E33S,1.7937
15,13,1.9,S,E44S,2.2421
15,14,1.9666,S,E11S,0.4332
15,14,1.9666,S,E22S,0.8665
15,14,1.9666,S,E33S,1.7329
15,14,1.9666,S,E44S,2.1662
15,15,2.034,M,E11M,1.2566
15,15,2.034,M,E22M,2.5133
16,0,1.2526,S,E11S,0.6802
16,0,1.2526,S,E22S,1.3603
16,0,1.2526,S,E33S,2.7207
16,0,1.2526,S,E44S,3.4009
16,1,1.2935,M,E11M,1.976
16,1,1.2935,M,E22M,3.9519
16,2,1.3378,S,E11S,0.6369
16,2,1.3378,S,E22S,1.2737
16,2,1.3378,S,E33S,2.5475
16,2,1.3378,S,E44S,3.1843
16,3,1.3851,S,E11S,0.6151
16,3,1.3851,S,E22S,1.2303
16,3,1.3851,S,E33S,2.4605
16,3,1.3851,S,E44S,3.0757
16,4,1.4351,M,E11M,1.7811
16,4,1.4351,M,E22M,3.5622
16,5,1.4875,S,E11S,0.5728
16,5,1.4875,S,E22S,1.1456
16,5,1.4875,S,E33S,2.2911
16,5,1.4875,S,E44S,2.8639
16,6,1.5421,S,E11S,0.5525
16,6,1.5421,S,E22S,1.105
16,6,1.5421,S,E33S,2.21
16,6,1.5421,S,E44S,2.7625
16,7,1.5987,M,E11M,1.5988
16,7,1.5987,M,E22M,3.1976
16,8,1.6571,S,E11S,0.5142
16,8,1.6571,S,E22S,1.0283
16,8,1.6571,S,E33S,2.0567
16,8,1.6571,S,E44S,2.5708
16,9,1.717,S,E11S,0.4962
16,9,1.717,S,E22S,0.9924
16,9,1.717,S,E33S,1.9849
16,9,1.717,S,E44S,2.4811
16,10,1.7784,M,E11M,1.4373
16,10,1.7784,M,E22M,2.8745
16,11,1.841,S,E11S,0.4628
16,11,1.841,S,E22S,0.9256
16,11,1.841,S,E33S,1.8511
16,11,1.841,S,E44S,2.3139
16,12,1.9048,S,E11S,0.4473
16,12,1.9048,S,E22S,0.8946
16,12,1.9048,S,E33S,1.7891
16,12,1.9048,S,E44S,2.2364
16,13,1.9697,M,E11M,1.2977
16,13,1.9697,M,E22M,2.5953
16,14,2.0355,S,E11S,0.4186
16,14,2.0355,S,E22S,0.8371
16,14,2.0355,S,E33S,1.6743
16,14,2.0355,S,E44S,2.0928
16,15,2.1022,S,E11S,0.4053
16,15,2.1022,S,E22S,0.8106
16,15,2.1022,S,E33S,1.6212
16,15,2.1022,S,E44S,2.0265
16,16,2.1696,M,E11M,1.1781
16,16,2.1696,M,E22M,2.3562
17,0,1.3309,S,E11S,0.6402
17,0,1.3309,S,E22S,1.2803
17,0,1.3309,S,E33S,2.5607
17,0,1.3309,S,E44S,3.2008
17,1,1.3717,S,E11S,0.6211
17,1,1.3717,S,E22S,1.2422
17,1,1.3717,S,E33S,2.4845
17,1,1.3717,S,E44S,3.1056
17,2,1.4157,M,E11M,1.8055
17,2,1.4157,M,E22M,3.6109
17,3,1.4626,S,E11S,0.5825
17,3,1.4626,S,E22S,1.1651
17,3,1.4626,S,E33S,2.3302
17,3,1.4626,S,E44S,2.9127
17,4,1.512,S,E11S,0.5635
17,4,1.512,S,E22S,1.127
17,4,1.512,S,E33S,2.254
17,4,1.512,S,E44S,2.8174
17,5,1.5638,M,E11M,1.6345
17,5,1.5638,M,E22M,3.2689
17,6,1.6178,S,E11S,0.5267
17,6,1.6178,S,E22S,1.0533
17,6,1.6178,S,E33S,2.1066
17,6,1.6178,S,E44S,2.6333
17,7,1.6736,S,E11S,0.5091
17,7,1.6736,S,E22S,1.0182
17,7,1.6736,S,E33S,2.0363
17,7,1.6736,S,E44S,2.5454
17,8,1.7312,M,E11M,1.4764
17,8,1.7312,M,E22M,2.9528
17,9,1.7904,S,E11S,0.4759
17,9,1.7904,S,E22S,0.9517
17,9,1.7904,S,E33S,1.9035
17,9,1.7904,S,E44S,2.3794
17,10,1.851,S,E11S,0.4603
17,10,1.851,S,E22S,0.9206
17,10,1.851,S,E33S,1.8412
17,10,1.851,S,E44S,2.3015
17,11,1.9129,M,E11M,1.3362
17,11,1.9129,M,E22M,2.6724
17,12,1.9759,S,E11S,0.4312
17,12,1.9759,S,E22S,0.8624
17,12,1.9759,S,E33S,1.7248
17,12,1.9759,S,E44S,2.156
17,13,2.04,S,E11S,0.4176
17,13,2.04,S,E22S,0.8353
17,13,2.04,S,E33S,1.6706
17,13,2.04,S,E44S,2.0882
17,14,2.1051,M,E11M,1.2142
17,14,2.1051,M,E22M,2.4284
17,15,2.171,S,E11S,0.3924
17,15,2.171,S,E22S,0.7849
17,15,2.171,S,E33S,1.5698
17,15,2.171,S,E44S,1.9622
17,16,2.2377,S,E11S,0.3807
17,16,2.2377,S,E22S,0.7615
17,16,2.2377,S,E33S,1.523
17,16,2.2377,S,E44S,1.9037
17,17,2.3052,M,E11M,1.1088
17,17,2.3052,M,E22M,2.2176
18,0,1.4092,M,E11M,1.8138
18,0,1.4092,M,E22M,3.6276
18,1,1.4499,S,E11S,0.5876
18,1,1.4499,S,E22S,1.1752
18,1,1.4499,S,E33S,2.3505
18,1,1.4499,S,E44S,2.9381
18,2,1.4937,S,E11S,0.5704
18,2,1.4937,S,E22S,1.1408
18,2,1.4937,S,E33S,2.2817
18,2,1.4937,S,E44S,2.8521
18,3,1.5401,M,E11M,1.6596
18,3,1.5401,M,E22M,3.3192
18,4,1.5891,S,E11S,0.5362
18,4,1.5891,S,E22S,1.0723
18,4,1.5891,S,E33S,2.1446
18,4,1.5891,S,E44S,2.6808
18,5,1.6403,S,E11S,0.5194
18,5,1.6403,S,E22S,1.0388
18,5,1.6403,S,E33S,2.0776
18,5,1.6403,S,E44S,2.597
18,6,1.6936,M,E11M,1.5092
18,6,1.6936,M,E22M,3.0183
18,7,1.7488,S,E11S,0.4872
18,7,1.7488,S,E22S,0.9744
18,7,1.7488,S,E33S,1.9487
18,7,1.7488,S,E44S,2.4359
18,8,1.8057,S,E11S,0.4718
18,8,1.8057,S,E22S,0.9437
18,8,1.8057,S,E33S,1.8873
18,8,1.8057,S,E44S,2.3591
18,9,1.8642,M,E11M,1.3711
18,9,1.8642,M,E22M,2.7422
18,10,1.9241,S,E11S,0.4428
18,10,1.9241,S,E22S,0.8856
18,10,1.9241,S,E33S,1.7713
18,10,1.9241,S,E44S,2.2141
18,11,1.9852,S,E11S,0.4292
18,11,1.9852,S,E22S,0.8584
18,11,1.9852,S,E33S,1.7167
18,11,1.9852,S,E44S,2.1459
18,12,2.0475,M,E11M,1.2483
18,12,2.0475,M,E22M,2.4967
18,13,2.1109,S,E11S,0.4036
18,13,2.1109,S,E22S,0.8072
18,13,2.1109,S,E33S,1.6145
18,13,2.1109,S,E44S,2.0181
18,14,2.1752,S,E11S,0.3917
18,14,2.1752,S,E22S,0.7834
18,14,2.1752,S,E33S,1.5667
18,14,2.1752,S,E44S,1.9584
18,15,2.2405,M,E11M,1.1408
18,15,2.2405,M,E22M,2.2817
18,16,2.3065,S,E11S,0.3694
18,16,2.3065,S,E22S,0.7388
18,16,2.3065,S,E33S,1.4775
18,16,2.3065,S,E44S,1.8469
18,17,2.3733,S,E11S,0.359
18,17,2.3733,S,E22S,0.718
18,17,2.3733,S,E33S,1.436
18,17,2.3733,S,E44S,1.795
18,18,2.4408,M,E11M,1.0472
18,18,2.4408,M,E22M,2.0944
19,0,1.4875,S,E11S,0.5728
19,0,1.4875,S,E22S,1.1456
19,0,1.4875,S,E33S,2.2911
19,0,1.4875,S,E44S,2.8639
19,1,1.5281,M,E11M,1.6726
19,1,1.5281,M,E22M,3.3453
19,2,1.5716,S,E11S,0.5421
19,2,1.5716,S,E22S,1.0842
19,2,1.5716,S,E33S,2.1684
19,2,1.5716,S,E44S,2.7106
19,3,1.6178,S,E11S,0.5267
19,3,1.6178,S,E22S,1.0533
19,3,1.6178,S,E33S,2.1066
19,3,1.6178,S,E44S,2.6333
19,4,1.6663,M,E11M,1.534
19,4,1.6663,M,E22M,3.0679
19,5,1.717,S,E11S,0.4962
19,5,1.717,S,E22S,0.9924
19,5,1.717,S,E33S,1.9849
19,5,1.717,S,E44S,2.4811
19,6,1.7697,S,E11S,0.4814
19,6,1.7697,S,E22S,0.9629
19,6,1.7697,S,E33S,1.9257
19,6,1.7697,S,E44S,2.4071
19,7,1.8243,M,E11M,1.4011
19,7,1.8243,M,E22M,2.8022
19,8,1.8806,S,E11S,0.4531
19,8,1.8806,S,E22S,0.9061
19,8,1.8806,S,E33S,1.8122
19,8,1.8806,S,E44S,2.2653
19,9,1.9383,S,E11S,0.4396
19,9,1.9383,S,E22S,0.8791
19,9,1.9383,S,E33S,1.7582
19,9,1.9383,S,E44S,2.1978
19,10,1.9975,M,E11M,1.2796
19,10,1.9975,M,E22M,2.5592
19,11,2.058,S,E11S,0.414
19,11,2.058,S,E22S,0.828
19,11,2.058,S,E33S,1.656
19,11,2.058,S,E44S,2.07
19,12,2.1196,S,E11S,0.402
19,12,2.1196,S,E22S,0.8039
19,12,2.1196,S,E33S,1.6079
19,12,2.1196,S,E44S,2.0098
19,13,2.1823,M,E11M,1.1713
19,13,2.1823,M,E22M,2.3425
19,14,2.2459,S,E11S,0.3794
19,14,2.2459,S,E22S,0.7587
19,14,2.2459,S,E33S,1.5174
19,14,2.2459,S,E44S,1.8968
19,15,2.3105,S,E11S,0.3687
19,15,2.3105,S,E22S,0.7375
19,15,2.3105,S,E33S,1.475
19,15,2.3105,S,E44S,1.8437
19,16,2.3759,M,E11M,1.0758
19,16,2.3759,M,E22M,2.1516
19,17,2.4421,S,E11S,0.3489
19,17,2.4421,S,E22S,0.6978
19,17,2.4421,S,E33S,1.3955
19,17,2.4421,S,E44S,1.7444
19,18,2.5089,S,E11S,0.3396
19,18,2.5089,S,E22S,0.6792
19,18,2.5089,S,E33S,1.3584
19,18,2.5089,S,E44S,1.698
19,19,2.5764,M,E11M,0.9921
19,19,2.5764,M,E22M,1.9842
20,0,1.5658,S,E11S,0.5441
20,0,1.5658,S,E22S,1.0883
20,0,1.5658,S,E33S,2.1766
20,0,1.5658,S,E44S,2.7207
20,1,1.6063,S,E11S,0.5304
20,1,1.6063,S,E22S,1.0608
20,1,1.6063,S,E33S,2.1216
20,1,1.6063,S,E44S,2.652
20,2,1.6496,M,E11M,1.5494
20,2,1.6496,M,E22M,3.0988
20,3,1.6955,S,E11S,0.5025
20,3,1.6955,S,E22S,1.005
20,3,1.6955,S,E33S,2.0101
20,3,1.6955,S,E44S,2.5126
20,4,1.7436,S,E11S,0.4887
20,4,1.7436,S,E22S,0.9773
20,4,1.7436,S,E33S,1.9546
20,4,1.7436,S,E44S,2.4433
20,5,1.7938,M,E11M,1.4249
20,5,1.7938,M,E22M,2.8498
20,6,1.846,S,E11S,0.4615
20,6,1.846,S,E22S,0.9231
20,6,1.846,S,E33S,1.8461
20,6,1.846,S,E44S,2.3077
20,7,1.9,S,E11S,0.4484
20,7,1.9,S,E22S,0.8968
20,7,1.9,S,E33S,1.7937
20,7,1.9,S,E44S,2.2421
20,8,1.9557,M,E11M,1.307
20,8,1.9557,M,E22M,2.614
20,9,2.0128,S,E11S,0.4233
20,9,2.0128,S,E22S,0.8466
20,9,2.0128,S,E33S,1.6932
20,9,2.0128,S,E44S,2.1165
20,10,2.0713,S,E11S,0.4113
20,10,2.0713,S,E22S,0.8227
20,10,2.0713,S,E33S,1.6453
20,10,2.0713,S,E44S,2.0567
20,11,2.1311,M,E11M,1.1994
20,11,2.1311,M,E22M,2.3987
20,12,2.1921,S,E11S,0.3887
20,12,2.1921,S,E22S,0.7773
20,12,2.1921,S,E33S,1.5547
20,12,2.1921,S,E44S,1.9434
20,13,2.2541,S,E11S,0.378
20,13,2.2541,S,E22S,0.756
20,13,2.2541,S,E33S,1.5119
20,13,2.2541,S,E44S,1.8899
20,14,2.3171,M,E11M,1.1031
20,14,2.3171,M,E22M,2.2062
20,15,2.3811,S,E11S,0.3578
20,15,2.3811,S,E22S,0.7156
20,15,2.3811,S,E33S,1.4313
20,15,2.3811,S,E44S,1.7891
20,16,2.4458,S,E11S,0.3483
20,16,2.4458,S,E22S,0.6967
20,16,2.4458,S,E33S,1.3934
20,16,2.4458,S,E44S,1.7417
20,17,2.5113,M,E11M,1.0178
20,17,2.5113,M,E22M,2.0356
20,18,2.5776,S,E11S,0.3305
20,18,2.5776,S,E22S,0.6611
20,18,2.5776,S,E33S,1.3222
20,18,2.5776,S,E44S,1.6527
20,19,2.6445,S,E11S,0.3222
20,19,2.6445,S,E22S,0.6444
20,19,2.6445,S,E33S,1.2887
20,19,2.6445,S,E44S,1.6109
20,20,2.712,M,E11M,0.9425
20,20,2.712,M,E22M,1.885
21,0,1.6441,M,E11M,1.5547
21,0,1.6441,M,E22M,3.1094
21,1,1.6846,S,E11S,0.5058
21,1,1.6846,S,E22S,1.0115
21,1,1.6846,S,E33S,2.0231
21,1,1.6846,S,E44S,2.5288
21,2,1.7277,S,E11S,0.4931
21,2,1.7277,S,E22S,0.9863
21,2,1.7277,S,E33S,1.9726
21,2,1.7277,S,E44S,2.4657
21,3,1.7732,M,E11M,1.4415
21,3,1.7732,M,E22M,2.8829
21,4,1.8209,S,E11S,0.4679
21,4,1.8209,S,E22S,0.9358
21,4,1.8209,S,E33S,1.8716
21,4,1.8209,S,E44S,2.3394
21,5,1.8708,S,E11S,0.4554
21,5,1.8708,S,E22S,0.9109
21,5,1.8708,S,E33S,1.8217
21,5,1.8708,S,E44S,2.2772
21,6,1.9225,M,E11M,1.3295
21,6,1.9225,M,E22M,2.6591
21,7,1.9759,S,E11S,0.4312
21,7,1.9759,S,E22S,0.8624
21,7,1.9759,S,E33S,1.7248
21,7,1.9759,S,E44S,2.156
21,8,2.031,S,E11S,0.4195
21,8,2.031,S,E22S,0.839
21,8,2.031,S,E33S,1.678
21,8,2.031,S,E44S,2.0975
21,9,2.0875,M,E11M,1.2244
21,9,2.0875,M,E22M,2.4488
21,10,2.1455,S,E11S,0.3971
21,10,2.1455,S,E22S,0.7942
21,10,2.1455,S,E33S,1.5885
21,10,2.1455,S,E44S,1.9856
21,11,2.2046,S,E11S,0.3865
21,11,2.2046,S,E22S,0.7729
21,11,2.2046,S,E33S,1.5458
21,11,2.2046,S,E44S,1.9323
21,12,2.265,M,E11M,1.1285
21,12,2.265,M,E22M,2.257
21,13,2.3264,S,E11S,0.3662
21,13,2.3264,S,E22S,0.7325
21,13,2.3264,S,E33S,1.4649
21,13,2.3264,S,E44S,1.8312
21,14,2.3888,S,E11S,0.3567
21,14,2.3888,S,E22S,0.7133
21,14,2.3888,S,E33S,1.4267
21,14,2.3888,S,E44S,1.7833
21,15,2.4521,M,E11M,1.0424
21,15,2.4521,M,E22M,2.0848
21,16,2.5162,S,E11S,0.3386
21,16,2.5162,S,E22S,0.6772
21,16,2.5162,S,E33S,1.3544
21,16,2.5162,S,E44S,1.693
21,17,2.5812,S,E11S,0.3301
21,17,2.5812,S,E22S,0.6602
21,17,2.5812,S,E33S,1.3203
21,17,2.5812,S,E44S,1.6504
21,18,2.6468,M,E11M,0.9657
21,18,2.6468,M,E22M,1.9314
21,19,2.7131,S,E11S,0.314
21,19,2.7131,S,E22S,0.6281
21,19,2.7131,S,E33S,1.2561
21,19,2.7131,S,E44S,1.5701
21,20,2.7801,S,E11S,0.3065
21,20,2.7801,S,E22S,0.6129
21,20,2.7801,S,E33S,1.2259
21,20,2.7801,S,E44S,1.5323
21,21,2.8476,M,E11M,0.8976
21,21,2.8476,M,E22M,1.7952
22,0,1.7224,S,E11S,0.4947
22,0,1.7224,S,E22S,0.9893
22,0,1.7224,S,E33S,1.9787
22,0,1.7224,S,E44S,2.4734
22,1,1.7628,M,E11M,1.45
22,1,1.7628,M,E22M,2.8999
22,2,1.8057,S,E11S,0.4718
22,2,1.8057,S,E22S,0.9437
22,2,1.8057,S,E33S,1.8873
22,2,1.8057,S,E44S,2.3591
22,3,1.851,S,E11S,0.4603
22,3,1.851,S,E22S,0.9206
22,3,1.851,S,E33S,1.8412
22,3,1.851,S,E44S,2.3015
22,4,1.8984,M,E11M,1.3464
22,4,1.8984,M,E22M,2.6928
22,5,1.9478,S,E11S,0.4374
22,5,1.9478,S,E22S,0.8748
22,5,1.9478,S,E33S,1.7497
22,5,1.9478,S,E44S,2.1871
22,6,1.999,S,E11S,0.4262
22,6,1.999,S,E22S,0.8524
22,6,1.999,S,E33S,1.7048
22,6,1.999,S,E44S,2.131
22,7,2.052,M,E11M,1.2456
22,7,2.052,M,E22M,2.4912
22,8,2.1065,S,E11S,0.4045
22,8,2.1065,S,E22S,0.8089
22,8,2.1065,S,E33S,1.6178
22,8,2.1065,S,E44S,2.0223
22,9,2.1625,S,E11S,0.394
22,9,2.1625,S,E22S,0.788
22,9,2.1625,S,E33S,1.5759
22,9,2.1625,S,E44S,1.9699
22,10,2.2199,M,E11M,1.1514
22,10,2.2199,M,E22M,2.3028
22,11,2.2785,S,E11S,0.3739
22,11,2.2785,S,E22S,0.7479
22,11,2.2785,S,E33S,1.4957
22,11,2.2785,S,E44S,1.8697
22,12,2.3382,S,E11S,0.3644
22,12,2.3382,S,E22S,0.7288
22,12,2.3382,S,E33S,1.4575
22,12,2.3382,S,E44S,1.8219
22,13,2.399,M,E11M,1.0654
22,13,2.399,M,E22M,2.1309
22,14,2.4608,S,E11S,0.3462
22,14,2.4608,S,E22S,0.6925
22,14,2.4608,S,E33S,1.3849
22,14,2.4608,S,E44S,1.7311
22,15,2.5235,S,E11S,0.3376
22,15,2.5235,S,E22S,0.6752
22,15,2.5235,S,E33S,1.3505
22,15,2.5235,S,E44S,1.6881
22,16,2.5871,M,E11M,0.988
22,16,2.5871,M,E22M,1.976
22,17,2.6514,S,E11S,0.3213
22,17,2.6514,S,E22S,0.6427
22,17,2.6514,S,E33S,1.2853
22,17,2.6514,S,E44S,1.6067
22,18,2.7165,S,E11S,0.3136
22,18,2.7165,S,E22S,0.6273
22,18,2.7165,S,E33S,1.2545
22,18,2.7165,S,E44S,1.5682
22,19,2.7823,M,E11M,0.9187
22,19,2.7823,M,E22M,1.8373
22,20,2.8487,S,E11S,0.2991
22,20,2.8487,S,E22S,0.5982
22,20,2.8487,S,E33S,1.1963
22,20,2.8487,S,E44S,1.4954
22,21,2.9157,S,E11S,0.2922
22,21,2.9157,S,E22S,0.5844
22,21,2.9157,S,E33S,1.1689
22,21,2.9157,S,E44S,1.4611
22,22,2.9832,M,E11M,0.8568
22,22,2.9832,M,E22M,1.7136
23,0,1.8006,S,E11S,0.4732
23,0,1.8006,S,E22S,0.9463
23,0,1.8006,S,E33S,1.8927
23,0,1.8006,S,E44S,2.3658
23,1,1.841,S,E11S,0.4628
23,1,1.841,S,E22S,0.9256
23,1,1.841,S,E33S,1.8511
23,1,1.841,S,E44S,2.3139
23,2,1.8838,M,E11M,1.3568
23,2,1.8838,M,E22M,2.7136
23,3,1.9288,S,E11S,0.4417
23,3,1.9288,S,E22S,0.8834
23,3,1.9288,S,E33S,1.7669
23,3,1.9288,S,E44S,2.2086
23,4,1.9759,S,E11S,0.4312
23,4,1.9759,S,E22S,0.8624
23,4,1.9759,S,E33S,1.7248
23,4,1.9759,S,E44S,2.156
23,5,2.0249,M,E11M,1.2623
23,5,2.0249,M,E22M,2.5245
23,6,2.0758,S,E11S,0.4105
23,6,2.0758,S,E22S,0.8209
23,6,2.0758,S,E33S,1.6418
23,6,2.0758,S,E44S,2.0523
23,7,2.1282,S,E11S,0.4003
23,7,2.1282,S,E22S,0.8007
23,7,2.1282,S,E33S,1.6013
23,7,2.1282,S,E44S,2.0017
23,8,2.1823,M,E11M,1.1713
23,8,2.1823,M,E22M,2.3425
23,9,2.2377,S,E11S,0.3807
23,9,2.2377,S,E22S,0.7615
23,9,2.2377,S,E33S,1.523
23,9,2.2377,S,E44S,1.9037
23,10,2.2945,S,E11S,0.3713
23,10,2.2945,S,E22S,0.7426
23,10,2.2945,S,E33S,1.4853
23,10,2.2945,S,E44S,1.8566
23,11,2.3526,M,E11M,1.0865
23,11,2.3526,M,E22M,2.1729
23,12,2.4117,S,E11S,0.3533
23,12,2.4117,S,E22S,0.7065
23,12,2.4117,S,E33S,1.4131
23,12,2.4117,S,E44S,1.7664
23,13,2.472,S,E11S,0.3447
23,13,2.472,S,E22S,0.6893
23,13,2.472,S,E33S,1.3786
23,13,2.472,S,E44S,1.7233
23,14,2.5332,M,E11M,1.009
23,14,2.5332,M,E22M,2.018
23,15,2.5954,S,E11S,0.3283
23,15,2.5954,S,E22S,0.6566
23,15,2.5954,S,E33S,1.3131
23,15,2.5954,S,E44S,1.6414
23,16,2.6584,S,E11S,0.3205
23,16,2.6584,S,E22S,0.641
23,16,2.6584,S,E33S,1.282
23,16,2.6584,S,E44S,1.6025
23,17,2.7222,M,E11M,0.939
23,17,2.7222,M,E22M,1.8779
23,18,2.7867,S,E11S,0.3057
23,18,2.7867,S,E22S,0.6115
23,18,2.7867,S,E33S,1.223
23,18,2.7867,S,E44S,1.5287
23,19,2.8519,S,E11S,0.2987
23,19,2.8519,S,E22S,0.5975
23,19,2.8519,S,E33S,1.195
23,19,2.8519,S,E44S,1.4937
23,20,2.9178,M,E11M,0.876
23,20,2.9178,M,E22M,1.752
23,21,2.9842,S,E11S,0.2855
23,21,2.9842,S,E22S,0.571
23,21,2.9842,S,E33S,1.142
23,21,2.9842,S,E44S,1.4275
23,22,3.0513,S,E11S,0.2792
23,22,3.0513,S,E22S,0.5585
23,22,3.0513,S,E33S,1.1169
23,22,3.0513,S,E44S,1.3961
23,23,3.1188,M,E11M,0.8195
23,23,3.1188,M,E22M,1.6391
24,0,1.8789,M,E11M,1.3603
24,0,1.8789,M,E22M,2.7207
24,1,1.9193,S,E11S,0.4439
24,1,1.9193,S,E22S,0.8878
24,1,1.9193,S,E33S,1.7757
24,1,1.9193,S,E44S,2.2196
24,2,1.9619,S,E11S,0.4343
24,2,1.9619,S,E22S,0.8685
24,2,1.9619,S,E33S,1.7371
24,2,1.9619,S,E44S,2.1714
24,3,2.0067,M,E11M,1.2737
24,3,2.0067,M,E22M,2.5475
24,4,2.0535,S,E11S,0.4149
24,4,2.0535,S,E22S,0.8298
24,4,2.0535,S,E33S,1.6596
24,4,2.0535,S,E44S,2.0745
24,5,2.1022,S,E11S,0.4053
24,5,2.1022,S,E22S,0.8106
24,5,2.1022,S,E33S,1.6212
24,5,2.1022,S,E44S,2.0265
24,6,2.1526,M,E11M,1.1874
24,6,2.1526,M,E22M,2.3748
24,7,2.2046,S,E11S,0.3865
24,7,2.2046,S,E22S,0.7729
24,7,2.2046,S,E33S,1.5458
24,7,2.2046,S,E44S,1.9323
24,8,2.2582,S,E11S,0.3773
24,8,2.2582,S,E22S,0.7546
24,8,2.2582,S,E33S,1.5092
24,8,2.2582,S,E44S,1.8865
24,9,2.3132,M,E11M,1.105
24,9,2.3132,M,E22M,2.21
24,10,2.3694,S,E11S,0.3596
24,10,2.3694,S,E22S,0.7192
24,10,2.3694,S,E33S,1.4383
24,10,2.3694,S,E44S,1.7979
24,11,2.4269,S,E11S,0.3511
24,11,2.4269,S,E22S,0.7021
24,11,2.4269,S,E33S,1.4042
24,11,2.4269,S,E44S,1.7553
24,12,2.4856,M,E11M,1.0283
24,12,2.4856,M,E22M,2.0567
24,13,2.5453,S,E11S,0.3347
24,13,2.5453,S,E22S,0.6695
24,13,2.5453,S,E33S,1.3389
24,13,2.5453,S,E44S,1.6737
24,14,2.606,S,E11S,0.3269
24,14,2.606,S,E22S,0.6539
24,14,2.606,S,E33S,1.3078
24,14,2.606,S,E44S,1.6347
24,15,2.6676,M,E11M,0.9582
24,15,2.6676,M,E22M,1.9164
24,16,2.73,S,E11S,0.3121
24,16,2.73,S,E22S,0.6242
24,16,2.73,S,E33S,1.2483
24,16,2.73,S,E44S,1.5604
24,17,2.7933,S,E11S,0.305
24,17,2.7933,S,E22S,0.61
24,17,2.7933,S,E33S,1.2201
24,17,2.7933,S,E44S,1.5251
24,18,2.8573,M,E11M,0.8946
24,18,2.8573,M,E22M,1.7891
24,19,2.922,S,E11S,0.2916
24,19,2.922,S,E22S,0.5832
24,19,2.922,S,E33S,1.1663
24,19,2.922,S,E44S,1.4579
24,20,2.9873,S,E11S,0.2852
24,20,2.9873,S,E22S,0.5704
24,20,2.9873,S,E33S,1.1408
24,20,2.9873,S,E44S,1.426
24,21,3.0533,M,E11M,0.8371
24,21,3.0533,M,E22M,1.6743
24,22,3.1198,S,E11S,0.2731
24,22,3.1198,S,E22S,0.5462
24,22,3.1198,S,E33S,1.0924
24,22,3.1198,S,E44S,1.3655
24,23,3.1868,S,E11S,0.2673
24,23,3.1868,S,E22S,0.5347
24,23,3.1868,S,E33S,1.0694
24,23,3.1868,S,E44S,1.3367
24,24,3.2544,M,E11M,0.7854
24,24,3.2544,M,E22M,1.5708
25,0,1.9572,S,E11S,0.4353
25,0,1.9572,S,E22S,0.8706
25,0,1.9572,S,E33S,1.7412
25,0,1.9572,S,E44S,2.1766
25,1,1.9975,M,E11M,1.2796
25,1,1.9975,M,E22M,2.5592
25,2,2.04,S,E11S,0.4176
25,2,2.04,S,E22S,0.8353
25,2,2.04,S,E33S,1.6706
25,2,2.04,S,E44S,2.0882
25,3,2.0846,S,E11S,0.4087
25,3,2.0846,S,E22S,0.8174
25,3,2.0846,S,E33S,1.6348
25,3,2.0846,S,E44S,2.0436
25,4,2.1311,M,E11M,1.1994
25,4,2.1311,M,E22M,2.3987
25,5,2.1795,S,E11S,0.3909
25,5,2.1795,S,E22S,0.7818
25,5,2.1795,S,E33S,1.5637
25,5,2.1795,S,E44S,1.9546
25,6,2.2295,S,E11S,0.3821
25,6,2.2295,S,E22S,0.7643
25,6,2.2295,S,E33S,1.5286
25,6,2.2295,S,E44S,1.9107
25,7,2.2811,M,E11M,1.1205
25,7,2.2811,M,E22M,2.241
25,8,2.3343,S,E11S,0.365
25,8,2.3343,S,E22S,0.73
25,8,2.3343,S,E33S,1.46
25,8,2.3343,S,E44S,1.825
25,9,2.3888,S,E11S,0.3567
25,9,2.3888,S,E22S,0.7133
25,9,2.3888,S,E33S,1.4267
25,9,2.3888,S,E44S,1.7833
25,10,2.4446,M,E11M,1.0456
25,10,2.4446,M,E22M,2.0912
25,11,2.5016,S,E11S,0.3406
25,11,2.5016,S,E22S,0.6812
25,11,2.5016,S,E33S,1.3623
25,11,2.5016,S,E44S,1.7029
25,12,2.5597,S,E11S,0.3329
25,12,2.5597,S,E22S,0.6657
25,12,2.5597,S,E33S,1.3314
25,12,2.5597,S,E44S,1.6643
25,13,2.6189,M,E11M,0.976
25,13,2.6189,M,E22M,1.952
25,14,2.679,S,E11S,0.318
25,14,2.679,S,E22S,0.6361
25,14,2.679,S,E33S,1.2721
25,14,2.679,S,E44S,1.5901
25,15,2.7401,S,E11S,0.3109
25,15,2.7401,S,E22S,0.6219
25,15,2.7401,S,E33S,1.2437
25,15,2.7401,S,E44S,1.5547
25,16,2.802,M,E11M,0.9122
25,16,2.802,M,E22M,1.8244
25,17,2.8648,S,E11S,0.2974
25,17,2.8648,S,E22S,0.5948
25,17,2.8648,S,E33S,1.1896
25,17,2.8648,S,E44S,1.487
25,18,2.9282,S,E11S,0.291
25,18,2.9282,S,E22S,0.5819
25,18,2.9282,S,E33S,1.1638
25,18,2.9282,S,E44S,1.4548
25,19,2.9924,M,E11M,0.8542
25,19,2.9924,M,E22M,1.7083
25,20,3.0573,S,E11S,0.2787
25,20,3.0573,S,E22S,0.5574
25,20,3.0573,S,E33S,1.1147
25,20,3.0573,S,E44S,1.3934
25,21,3.1227,S,E11S,0.2728
25,21,3.1227,S,E22S,0.5457
25,21,3.1227,S,E33S,1.0914
25,21,3.1227,S,E44S,1.3642
25,22,3.1888,M,E11M,0.8016
25,22,3.1888,M,E22M,1.6031
25,23,3.2553,S,E11S,0.2617
25,23,3.2553,S,E22S,0.5234
25,23,3.2553,S,E33S,1.0469
25,23,3.2553,S,E44S,1.3086
25,24,3.3224,S,E11S,0.2564
25,24,3.3224,S,E22S,0.5129
25,24,3.3224,S,E33S,1.0258
25,24,3.3224,S,E44S,1.2822
25,25,3.39,M,E11M,0.754
25,25,3.39,M,E22M,1.508
